# T(K) V(Ang^3) B(GPa) C11 C12 C44 E(GPa) G(GPa) B_correction_factor
0.0  16.644931    75.5727   113.6623    56.5279    44.4965    97.9099    38.1248     1.0081
0.05  16.644931    75.5727   113.6623    56.5279    44.4965    97.9099    38.1248     1.0081
0.13  16.644931    75.5727   113.6623    56.5279    44.4965    97.9099    38.1248     1.0081
0.24  16.644931    75.5727   113.6623    56.5279    44.4965    97.9099    38.1248     1.0081
0.37  16.644931    75.5727   113.6623    56.5279    44.4965    97.9099    38.1248     1.0081
0.53  16.644931    75.5727   113.6623    56.5279    44.4965    97.9099    38.1248     1.0081
0.73  16.644931    75.5727   113.6623    56.5279    44.4965    97.9099    38.1248     1.0081
0.94  16.644931    75.5727   113.6623    56.5279    44.4965    97.9099    38.1248     1.0081
1.19  16.644931    75.5727   113.6623    56.5279    44.4965    97.9099    38.1248     1.0081
1.47  16.644931    75.5727   113.6623    56.5279    44.4965    97.9099    38.1248     1.0081
1.77  16.644931    75.5727   113.6623    56.5279    44.4965    97.9099    38.1248     1.0081
2.1  16.644931    75.5727   113.6623    56.5279    44.4965    97.9099    38.1248     1.0081
2.47  16.644931    75.5727   113.6623    56.5279    44.4965    97.9099    38.1248     1.0081
2.85  16.644931    75.5727   113.6623    56.5279    44.4965    97.9099    38.1248     1.0081
3.27  16.644931    75.5727   113.6623    56.5279    44.4965    97.9099    38.1248     1.0081
3.72  16.644931    75.5727   113.6623    56.5279    44.4965    97.9099    38.1248     1.0081
4.19  16.644931    75.5727   113.6623    56.5279    44.4965    97.9099    38.1248     1.0081
4.69  16.644931    75.5727   113.6623    56.5279    44.4965    97.9099    38.1248     1.0081
5.22  16.644931    75.5727   113.6623    56.5279    44.4965    97.9099    38.1248     1.0081
5.78  16.644931    75.5726   113.6622    56.5278    44.4965    97.9099    38.1248     1.0081
6.37  16.644931    75.5726   113.6622    56.5278    44.4965    97.9099    38.1248     1.0081
6.98  16.644932    75.5726   113.6622    56.5278    44.4965    97.9099    38.1248     1.0081
7.62  16.644932    75.5726   113.6622    56.5278    44.4965    97.9099    38.1248     1.0081
8.29  16.644932    75.5726   113.6622    56.5278    44.4965    97.9099    38.1248     1.0081
8.99  16.644933    75.5726   113.6621    56.5278    44.4965    97.9098    38.1248     1.0081
9.72  16.644934    75.5726   113.6621    56.5278    44.4965    97.9098    38.1248     1.0081
10.48  16.644934    75.5725   113.6620    56.5278    44.4965    97.9098    38.1247     1.0081
11.26  16.644935    75.5725   113.6619    56.5278    44.4965    97.9097    38.1247     1.0081
12.07  16.644937    75.5724   113.6618    56.5277    44.4965    97.9096    38.1247     1.0081
12.91  16.644938    75.5724   113.6617    56.5277    44.4964    97.9095    38.1247     1.0081
13.78  16.644940    75.5723   113.6615    56.5276    44.4964    97.9094    38.1246     1.0081
14.68  16.644943    75.5722   113.6613    56.5276    44.4964    97.9093    38.1246     1.0081
15.6  16.644946    75.5720   113.6611    56.5275    44.4963    97.9091    38.1245     1.0081
16.55  16.644950    75.5719   113.6608    56.5274    44.4962    97.9089    38.1244     1.0081
17.53  16.644956    75.5717   113.6604    56.5273    44.4962    97.9086    38.1243     1.0081
18.54  16.644962    75.5714   113.6599    56.5272    44.4961    97.9083    38.1242     1.0081
19.58  16.644970    75.5711   113.6592    56.5270    44.4959    97.9079    38.1240     1.0081
20.65  16.644980    75.5707   113.6585    56.5269    44.4958    97.9074    38.1238     1.0081
21.74  16.644992    75.5703   113.6575    56.5266    44.4956    97.9067    38.1235     1.0081
22.86  16.645006    75.5697   113.6564    56.5264    44.4954    97.9059    38.1232     1.0081
24.01  16.645025    75.5691   113.6550    56.5261    44.4951    97.9050    38.1229     1.0081
25.19  16.645047    75.5683   113.6534    56.5257    44.4948    97.9038    38.1224     1.0080
26.4  16.645075    75.5674   113.6514    56.5253    44.4944    97.9024    38.1218     1.0080
27.63  16.645108    75.5663   113.6491    56.5249    44.4939    97.9007    38.1212     1.0080
28.9  16.645148    75.5650   113.6464    56.5244    44.4933    97.8987    38.1203     1.0080
30.19  16.645196    75.5636   113.6432    56.5238    44.4925    97.8963    38.1194     1.0079
31.51  16.645252    75.5620   113.6396    56.5232    44.4917    97.8936    38.1183     1.0079
32.85  16.645319    75.5601   113.6354    56.5224    44.4907    97.8904    38.1170     1.0078
34.23  16.645399    75.5580   113.6307    56.5216    44.4894    97.8867    38.1155     1.0078
35.63  16.645491    75.5556   113.6253    56.5207    44.4881    97.8824    38.1137     1.0077
37.07  16.645598    75.5529   113.6192    56.5197    44.4864    97.8775    38.1117     1.0077
38.53  16.645722    75.5499   113.6123    56.5186    44.4846    97.8720    38.1095     1.0076
40.02  16.645864    75.5465   113.6047    56.5174    44.4824    97.8657    38.1069     1.0075
41.53  16.646024    75.5429   113.5964    56.5161    44.4800    97.8587    38.1040     1.0074
43.08  16.646208    75.5388   113.5870    56.5147    44.4772    97.8508    38.1008     1.0073
44.65  16.646413    75.5343   113.5768    56.5131    44.4741    97.8421    38.0972     1.0072
46.25  16.646645    75.5294   113.5657    56.5113    44.4706    97.8324    38.0932     1.0071
47.88  16.646903    75.5241   113.5535    56.5094    44.4667    97.8217    38.0888     1.0070
49.54  16.647190    75.5183   113.5403    56.5073    44.4623    97.8100    38.0840     1.0069
51.23  16.647508    75.5120   113.5259    56.5051    44.4575    97.7972    38.0787     1.0067
52.94  16.647857    75.5053   113.5106    56.5026    44.4522    97.7833    38.0729     1.0066
54.68  16.648240    75.4980   113.4941    56.5000    44.4464    97.7682    38.0667     1.0064
56.45  16.648659    75.4902   113.4764    56.4971    44.4400    97.7518    38.0599     1.0063
58.25  16.649116    75.4818   113.4575    56.4940    44.4331    97.7342    38.0526     1.0061
60.08  16.649612    75.4729   113.4373    56.4907    44.4256    97.7152    38.0447     1.0059
61.94  16.650149    75.4634   113.4159    56.4871    44.4175    97.6948    38.0362     1.0057
63.82  16.650725    75.4533   113.3933    56.4833    44.4087    97.6732    38.0273     1.0055
65.73  16.651345    75.4426   113.3694    56.4791    44.3993    97.6501    38.0177     1.0053
67.67  16.652011    75.4312   113.3442    56.4747    44.3893    97.6255    38.0075     1.0051
69.64  16.652722    75.4192   113.3176    56.4700    44.3785    97.5995    37.9966     1.0049
71.64  16.653481    75.4066   113.2897    56.4650    44.3670    97.5719    37.9851     1.0047
73.66  16.654285    75.3933   113.2606    56.4597    44.3548    97.5429    37.9731     1.0045
75.71  16.655139    75.3794   113.2301    56.4541    44.3419    97.5123    37.9604     1.0042
77.79  16.656043    75.3648   113.1983    56.4481    44.3282    97.4801    37.9470     1.0040
79.9  16.656999    75.3495   113.1650    56.4417    44.3137    97.4464    37.9329     1.0037
82.04  16.658008    75.3335   113.1304    56.4350    44.2985    97.4110    37.9182     1.0035
84.21  16.659070    75.3168   113.0944    56.4280    44.2824    97.3739    37.9027     1.0032
86.4  16.660181    75.2994   113.0572    56.4205    44.2656    97.3354    37.8867     1.0030
88.62  16.661346    75.2813   113.0185    56.4127    44.2480    97.2952    37.8699     1.0027
90.87  16.662567    75.2625   112.9785    56.4045    44.2295    97.2533    37.8525     1.0024
93.15  16.663843    75.2429   112.9371    56.3958    44.2102    97.2098    37.8344     1.0021
95.46  16.665176    75.2226   112.8943    56.3868    44.1900    97.1646    37.8155     1.0019
97.79  16.666559    75.2017   112.8503    56.3774    44.1691    97.1178    37.7961     1.0016
100.15  16.667999    75.1800   112.8049    56.3675    44.1473    97.0694    37.7759     1.0013
102.55  16.669502    75.1574   112.7580    56.3572    44.1246    97.0191    37.7549     1.0010
104.97  16.671057    75.1342   112.7098    56.3464    44.1011    96.9673    37.7334     1.0007
107.41  16.672662    75.1104   112.6605    56.3353    44.0769    96.9140    37.7112     1.0004
109.89  16.674332    75.0856   112.6096    56.3237    44.0516    96.8589    37.6882     1.0001
112.39  16.676053    75.0603   112.5575    56.3116    44.0256    96.8022    37.6646     0.9998
114.93  16.677839    75.0340   112.5039    56.2991    43.9987    96.7436    37.6402     0.9995
117.49  16.679676    75.0071   112.4492    56.2861    43.9709    96.6836    37.6152     0.9992
120.07  16.681564    74.9796   112.3933    56.2728    43.9424    96.6221    37.5896     0.9989
122.69  16.683517    74.9512   112.3358    56.2589    43.9129    96.5587    37.5631     0.9986
125.34  16.685528    74.9220   112.2770    56.2446    43.8826    96.4937    37.5360     0.9983
128.01  16.687590    74.8922   112.2171    56.2298    43.8515    96.4272    37.5084     0.9980
130.71  16.689710    74.8617   112.1559    56.2146    43.8195    96.3590    37.4800     0.9976
133.44  16.691887    74.8304   112.0933    56.1989    43.7867    96.2892    37.4509     0.9973
136.2  16.694123    74.7983   112.0294    56.1827    43.7530    96.2177    37.4211     0.9970
138.98  16.696407    74.7656   111.9645    56.1662    43.7186    96.1448    37.3908     0.9967
141.8  16.698758    74.7320   111.8980    56.1491    43.6831    96.0700    37.3597     0.9964
144.64  16.701158    74.6978   111.8304    56.1316    43.6470    95.9939    37.3280     0.9961
147.51  16.703615    74.6629   111.7616    56.1136    43.6100    95.9161    37.2956     0.9958
150.41  16.706130    74.6272   111.6914    56.0952    43.5721    95.8367    37.2625     0.9954
153.34  16.708701    74.5908   111.6200    56.0763    43.5334    95.7556    37.2288     0.9951
156.29  16.711321    74.5538   111.5475    56.0570    43.4940    95.6732    37.1945     0.9948
159.28  16.714006    74.5159   111.4735    56.0371    43.4536    95.5889    37.1594     0.9945
162.29  16.716739    74.4774   111.3984    56.0169    43.4125    95.5033    37.1238     0.9942
165.33  16.719529    74.4382   111.3221    55.9962    43.3705    95.4161    37.0875     0.9938
168.4  16.722375    74.3982   111.2445    55.9751    43.3278    95.3272    37.0505     0.9935
171.49  16.725268    74.3577   111.1659    55.9536    43.2843    95.2371    37.0131     0.9932
174.62  16.728227    74.3163   111.0858    55.9316    43.2399    95.1451    36.9748     0.9929
177.77  16.731232    74.2743   111.0047    55.9092    43.1948    95.0517    36.9360     0.9925
180.95  16.734293    74.2316   110.9223    55.8863    43.1488    94.9568    36.8965     0.9922
184.16  16.737410    74.1882   110.8387    55.8630    43.1020    94.8604    36.8564     0.9919
187.4  16.740583    74.1441   110.7538    55.8393    43.0545    94.7623    36.8156     0.9916
190.66  16.743801    74.0994   110.6679    55.8152    43.0062    94.6629    36.7743     0.9912
193.96  16.747084    74.0539   110.5805    55.7906    42.9570    94.5617    36.7322     0.9909
197.28  16.750413    74.0078   110.4921    55.7656    42.9071    94.4592    36.6896     0.9906
200.63  16.753798    73.9610   110.4025    55.7402    42.8564    94.3552    36.6463     0.9903
204.01  16.757237    73.9135   110.3116    55.7144    42.8049    94.2495    36.6024     0.9899
207.41  16.760722    73.8654   110.2197    55.6882    42.7528    94.1427    36.5580     0.9896
210.85  16.764271    73.8165   110.1263    55.6616    42.6997    94.0339    36.5128     0.9893
214.31  16.767865    73.7670   110.0319    55.6346    42.6460    93.9239    36.4670     0.9889
217.8  16.771515    73.7169   109.9363    55.6072    42.5914    93.8123    36.4207     0.9886
221.32  16.775219    73.6661   109.8394    55.5794    42.5361    93.6992    36.3736     0.9883
224.87  16.778978    73.6146   109.7413    55.5512    42.4799    93.5845    36.3260     0.9879
228.45  16.782791    73.5624   109.6419    55.5226    42.4230    93.4682    36.2777     0.9876
232.05  16.786649    73.5096   109.5416    55.4936    42.3654    93.3507    36.2288     0.9873
235.68  16.790562    73.4562   109.4400    55.4643    42.3071    93.2317    36.1794     0.9869
239.34  16.794529    73.4021   109.3371    55.4346    42.2479    93.1110    36.1292     0.9866
243.03  16.798551    73.3473   109.2330    55.4045    42.1880    92.9888    36.0785     0.9862
246.75  16.802628    73.2919   109.1276    55.3740    42.1273    92.8651    36.0271     0.9859
250.49  16.806749    73.2359   109.0212    55.3432    42.0659    92.7401    35.9751     0.9856
254.27  16.810936    73.1791   108.9133    55.3120    42.0036    92.6132    35.9224     0.9852
258.07  16.815166    73.1217   108.8044    55.2804    41.9407    92.4850    35.8692     0.9849
261.9  16.819452    73.0637   108.6942    55.2485    41.8770    92.3553    35.8153     0.9845
265.75  16.823781    73.0052   108.5830    55.2163    41.8126    92.2243    35.7609     0.9842
269.64  16.828176    72.9459   108.4702    55.1837    41.7473    92.0914    35.7057     0.9838
273.56  16.832627    72.8859   108.3562    55.1507    41.6813    91.9570    35.6499     0.9835
277.5  16.837121    72.8253   108.2412    55.1174    41.6146    91.8213    35.5935     0.9831
281.47  16.841671    72.7641   108.1249    55.0838    41.5471    91.6840    35.5365     0.9828
285.47  16.846276    72.7023   108.0072    55.0498    41.4789    91.5451    35.4788     0.9824
289.49  16.850925    72.6399   107.8886    55.0155    41.4100    91.4049    35.4206     0.9821
293.55  16.855641    72.5767   107.7684    54.9809    41.3402    91.2628    35.3616     0.9817
297.63  16.860401    72.5130   107.6471    54.9459    41.2697    91.1194    35.3021     0.9813
301.74  16.865217    72.4486   107.5246    54.9107    41.1985    90.9744    35.2419     0.9810
305.88  16.870089    72.3836   107.4007    54.8751    41.1265    90.8278    35.1810     0.9806
310.05  16.875017    72.3179   107.2754    54.8392    41.0537    90.6796    35.1195     0.9802
314.25  16.880001    72.2516   107.1489    54.8029    40.9801    90.5297    35.0572     0.9799
318.47  16.885030    72.1847   107.0213    54.7664    40.9058    90.3785    34.9945     0.9795
322.73  16.890127    72.1170   106.8920    54.7295    40.8307    90.2254    34.9309     0.9791
327.01  16.895270    72.0488   106.7617    54.6924    40.7549    90.0709    34.8668     0.9787
331.32  16.900469    71.9800   106.6301    54.6549    40.6783    89.9148    34.8020     0.9784
335.65  16.905713    71.9106   106.4973    54.6173    40.6011    89.7574    34.7366     0.9780
340.02  16.911027    71.8405   106.3629    54.5792    40.5229    89.5979    34.6705     0.9776
344.41  16.916386    71.7698   106.2274    54.5410    40.4441    89.4372    34.6037     0.9772
348.83  16.921803    71.6985   106.0905    54.5024    40.3644    89.2747    34.5363     0.9768
353.28  16.927278    71.6265   105.9523    54.4636    40.2840    89.1105    34.4682     0.9764
357.76  16.932811    71.5538   105.8126    54.4244    40.2028    88.9446    34.3993     0.9760
362.27  16.938403    71.4805   105.6714    54.3850    40.1208    88.7771    34.3298     0.9756
366.8  16.944041    71.4067   105.5292    54.3454    40.0381    88.6081    34.2597     0.9752
371.37  16.949751    71.3320   105.3852    54.3054    39.9545    88.4370    34.1887     0.9748
375.96  16.955507    71.2569   105.2401    54.2652    39.8702    88.2646    34.1171     0.9744
380.58  16.961323    71.1810   105.0936    54.2248    39.7851    88.0904    34.0448     0.9740
385.22  16.967186    71.1047   104.9458    54.1841    39.6994    87.9148    33.9720     0.9736
389.9  16.973122    71.0276   104.7963    54.1432    39.6127    87.7371    33.8982     0.9732
394.6  16.979105    70.9499   104.6457    54.1020    39.5253    87.5580    33.8239     0.9728
399.34  16.985163    70.8714   104.4932    54.0605    39.4370    87.3766    33.7487     0.9723
404.1  16.991268    70.7925   104.3395    54.0189    39.3479    87.1939    33.6729     0.9719
408.88  16.997422    70.7130   104.1846    53.9771    39.2583    87.0097    33.5965     0.9715
413.7  17.003651    70.6326   104.0279    53.9350    39.1676    86.8232    33.5191     0.9710
418.55  17.009941    70.5516   103.8696    53.8926    39.0761    86.6350    33.4410     0.9706
423.42  17.016281    70.4701   103.7101    53.8501    38.9839    86.4452    33.3623     0.9702
428.32  17.022684    70.3880   103.5491    53.8074    38.8909    86.2536    33.2829     0.9697
433.25  17.029150    70.3051   103.3864    53.7644    38.7970    86.0601    33.2026     0.9693
438.21  17.035680    70.2216   103.2222    53.7213    38.7023    85.8647    33.1215     0.9688
443.19  17.042261    70.1376   103.0567    53.6780    38.6069    85.6677    33.0399     0.9684
448.21  17.048919    70.0527   102.8892    53.6344    38.5105    85.4684    32.9572     0.9679
453.25  17.055628    69.9673   102.7205    53.5907    38.4133    85.2676    32.8740     0.9674
458.32  17.062403    69.8812   102.5501    53.5468    38.3154    85.0648    32.7899     0.9670
463.42  17.069243    69.7945   102.3780    53.5027    38.2165    84.8601    32.7050     0.9665
468.55  17.076149    69.7071   102.2042    53.4584    38.1168    84.6533    32.6193     0.9660
473.7  17.083108    69.6191   102.0291    53.4141    38.0164    84.4449    32.5329     0.9655
478.89  17.090148    69.5303   101.8520    53.3694    37.9149    84.2341    32.4455     0.9650
484.1  17.097242    69.4410   101.6735    53.3247    37.8128    84.0217    32.3574     0.9646
489.34  17.104403    69.3510   101.4932    53.2799    37.7097    83.8072    32.2685     0.9641
494.61  17.111633    69.2603   101.3112    53.2349    37.6057    83.5906    32.1787     0.9636
499.9  17.118918    69.1691   101.1277    53.1898    37.5011    83.3723    32.0882     0.9631
505.23  17.126286    69.0770   100.9421    53.1445    37.3953    83.1515    31.9967     0.9625
510.58  17.133711    68.9845   100.7551    53.0991    37.2888    82.9289    31.9045     0.9620
515.96  17.141205    68.8912   100.5662    53.0536    37.1814    82.7042    31.8114     0.9615
521.37  17.148771    68.7972   100.3755    53.0080    37.0731    82.4773    31.7174     0.9610
526.81  17.156408    68.7025   100.1829    52.9622    36.9639    82.2482    31.6224     0.9605
532.27  17.164103    68.6073    99.9888    52.9165    36.8539    82.0174    31.5268     0.9599
537.76  17.171871    68.5114    99.7928    52.8706    36.7430    81.7842    31.4302     0.9594
543.29  17.179727    68.4146    99.5945    52.8246    36.6309    81.5484    31.3325     0.9588
548.84  17.187642    68.3172    99.3946    52.7785    36.5181    81.3107    31.2341     0.9583
554.41  17.195617    68.2194    99.1931    52.7325    36.4045    81.0711    31.1348     0.9577
560.02  17.203681    68.1206    98.9893    52.6863    36.2898    80.8288    31.0345     0.9572
565.66  17.211821    68.0212    98.7834    52.6400    36.1741    80.5840    30.9331     0.9566
571.32  17.220024    67.9212    98.5759    52.5938    36.0577    80.3374    30.8310     0.9560
577.01  17.228303    67.8205    98.3663    52.5475    35.9402    80.0883    30.7279     0.9554
582.73  17.236660    67.7190    98.1547    52.5012    35.8218    79.8368    30.6238     0.9548
588.48  17.245095    67.6169    97.9409    52.4549    35.7024    79.5828    30.5186     0.9542
594.25  17.253595    67.5142    97.7254    52.4086    35.5822    79.3267    30.4127     0.9536
600.06  17.262190    67.4106    97.5073    52.3622    35.4607    79.0677    30.3055     0.9530
605.89  17.270850    67.3064    97.2875    52.3159    35.3385    78.8066    30.1974     0.9524
611.75  17.279592    67.2015    97.0654    52.2696    35.2153    78.5429    30.0883     0.9518
617.64  17.288415    67.0959    96.8411    52.2234    35.0910    78.2766    29.9781     0.9512
623.55  17.297307    66.9897    96.6149    52.1772    34.9659    78.0080    29.8671     0.9505
629.5  17.306297    66.8827    96.3861    52.1311    34.8395    77.7364    29.7547     0.9499
635.47  17.315356    66.7751    96.1553    52.0850    34.7124    77.4625    29.6415     0.9493
641.47  17.324501    66.6667    95.9222    52.0391    34.5841    77.1859    29.5271     0.9486
647.5  17.333732    66.5576    95.6868    51.9932    34.4548    76.9066    29.4116     0.9479
653.56  17.343050    66.4478    95.4490    51.9473    34.3244    76.6244    29.2950     0.9473
659.65  17.352456    66.3372    95.2088    51.9015    34.1929    76.3395    29.1772     0.9466
665.76  17.361936    66.2260    94.9666    51.8559    34.0606    76.0522    29.0585     0.9459
671.9  17.371505    66.1141    94.7219    51.8103    33.9272    75.7620    28.9386     0.9452
678.07  17.381164    66.0014    94.4748    51.7649    33.7926    75.4689    28.8176     0.9445
684.27  17.390915    65.8880    94.2253    51.7195    33.6570    75.1730    28.6953     0.9438
690.5  17.400759    65.7738    93.9732    51.6742    33.5202    74.8741    28.5719     0.9431
696.75  17.410681    65.6590    93.7191    51.6291    33.3825    74.5727    28.4475     0.9423
703.04  17.420713    65.5433    93.4620    51.5841    33.2435    74.2678    28.3217     0.9416
709.35  17.430825    65.4269    93.2027    51.5392    33.1035    73.9604    28.1948     0.9409
715.69  17.441033    65.3098    92.9409    51.4944    32.9623    73.6499    28.0667     0.9401
722.06  17.451339    65.1919    92.6766    51.4498    32.8200    73.3363    27.9374     0.9393
728.45  17.461728    65.0734    92.4100    51.4053    32.6768    73.0201    27.8070     0.9386
734.88  17.472233    64.9540    92.1403    51.3610    32.5321    72.7003    27.6752     0.9378
741.33  17.482824    64.8339    91.8685    51.3168    32.3865    72.3777    27.5422     0.9370
747.81  17.493516    64.7130    91.5940    51.2728    32.2396    72.0520    27.4080     0.9362
754.32  17.504312    64.5914    91.3167    51.2289    32.0916    71.7230    27.2725     0.9354
760.86  17.515213    64.4689    91.0368    51.1852    31.9423    71.3908    27.1357     0.9346
767.42  17.526203    64.3458    90.7546    51.1417    31.7920    71.0557    26.9978     0.9337
774.01  17.537300    64.2220    90.4696    51.0983    31.6405    70.7173    26.8585     0.9329
780.64  17.548523    64.0971    90.1814    51.0551    31.4874    70.3750    26.7177     0.9320
787.29  17.559839    63.9716    89.8908    51.0121    31.3334    70.0298    26.5758     0.9312
793.96  17.571249    63.8454    89.5979    50.9694    31.1782    69.6817    26.4327     0.9303
800.67  17.582789    63.7183    89.3017    50.9268    31.0216    69.3295    26.2880     0.9294
807.4  17.594426    63.5905    89.0031    50.8844    30.8639    68.9744    26.1421     0.9285
814.17  17.606197    63.4617    88.7012    50.8421    30.7046    68.6152    25.9946     0.9276
820.96  17.618067    63.3323    88.3968    50.8002    30.5442    68.2530    25.8459     0.9267
827.78  17.630055    63.2020    88.0895    50.7584    30.3825    67.8871    25.6957     0.9258
834.63  17.642164    63.0709    87.7792    50.7168    30.2195    67.5175    25.5442     0.9248
841.5  17.654378    62.9391    87.4665    50.6755    30.0553    67.1448    25.3914     0.9239
848.4  17.666715    62.8065    87.1508    50.6344    29.8897    66.7683    25.2371     0.9229
855.34  17.679195    62.6728    86.8316    50.5935    29.7225    66.3875    25.0811     0.9219
862.3  17.691784    62.5384    86.5098    50.5528    29.5541    66.0034    24.9239     0.9209
869.29  17.704502    62.4032    86.1850    50.5124    29.3844    65.6154    24.7651     0.9199
876.3  17.717332    62.2674    85.8577    50.4723    29.2134    65.2241    24.6051     0.9189
883.35  17.730313    62.1304    85.5267    50.4323    29.0407    64.8283    24.4433     0.9179
890.42  17.743410    61.9928    85.1932    50.3926    28.8668    64.4291    24.2802     0.9168
897.52  17.756643    61.8543    84.8565    50.3532    28.6914    64.0258    24.1155     0.9158
904.65  17.770015    61.7149    84.5167    50.3140    28.5145    63.6185    23.9493     0.9147
911.81  17.783527    61.5746    84.1737    50.2750    28.3362    63.2070    23.7814     0.9136
918.99  17.797163    61.4336    83.8281    50.2364    28.1565    62.7919    23.6122     0.9125
926.21  17.810962    61.2915    83.4787    50.1979    27.9751    62.3721    23.4412     0.9114
933.45  17.824889    61.1487    83.1266    50.1597    27.7923    61.9486    23.2688     0.9102
