# T(K) V(Ang^3) B(GPa) M1(GPa) M2(GPa) M3(GPa) M4(GPa) M5(GPa) M6(GPa) E(GPa) G(GPa)
0.0  16.644931    75.5727   226.7180    57.1344    57.1344    44.4965    44.4965    44.4965    97.9099    38.1248
0.05  16.644931    75.5727   226.7180    57.1344    57.1344    44.4965    44.4965    44.4965    97.9099    38.1248
0.13  16.644931    75.5727   226.7180    57.1344    57.1344    44.4965    44.4965    44.4965    97.9099    38.1248
0.24  16.644931    75.5727   226.7180    57.1344    57.1344    44.4965    44.4965    44.4965    97.9099    38.1248
0.37  16.644931    75.5727   226.7180    57.1344    57.1344    44.4965    44.4965    44.4965    97.9099    38.1248
0.53  16.644931    75.5727   226.7180    57.1344    57.1344    44.4965    44.4965    44.4965    97.9099    38.1248
0.73  16.644931    75.5727   226.7180    57.1344    57.1344    44.4965    44.4965    44.4965    97.9099    38.1248
0.94  16.644931    75.5727   226.7180    57.1344    57.1344    44.4965    44.4965    44.4965    97.9099    38.1248
1.19  16.644931    75.5727   226.7180    57.1344    57.1344    44.4965    44.4965    44.4965    97.9099    38.1248
1.47  16.644931    75.5727   226.7180    57.1344    57.1344    44.4965    44.4965    44.4965    97.9099    38.1248
1.77  16.644931    75.5727   226.7180    57.1344    57.1344    44.4965    44.4965    44.4965    97.9099    38.1248
2.1  16.644931    75.5727   226.7180    57.1344    57.1344    44.4965    44.4965    44.4965    97.9099    38.1248
2.47  16.644931    75.5727   226.7180    57.1344    57.1344    44.4965    44.4965    44.4965    97.9099    38.1248
2.85  16.644931    75.5727   226.7180    57.1344    57.1344    44.4965    44.4965    44.4965    97.9099    38.1248
3.27  16.644931    75.5727   226.7180    57.1344    57.1344    44.4965    44.4965    44.4965    97.9099    38.1248
3.72  16.644931    75.5727   226.7180    57.1344    57.1344    44.4965    44.4965    44.4965    97.9099    38.1248
4.19  16.644931    75.5727   226.7180    57.1344    57.1344    44.4965    44.4965    44.4965    97.9099    38.1248
4.69  16.644931    75.5727   226.7180    57.1344    57.1344    44.4965    44.4965    44.4965    97.9099    38.1248
5.22  16.644931    75.5726   226.7179    57.1344    57.1344    44.4965    44.4965    44.4965    97.9099    38.1248
5.78  16.644931    75.5726   226.7179    57.1344    57.1344    44.4965    44.4965    44.4965    97.9099    38.1248
6.37  16.644931    75.5726   226.7179    57.1344    57.1344    44.4965    44.4965    44.4965    97.9099    38.1248
6.98  16.644932    75.5726   226.7178    57.1344    57.1344    44.4965    44.4965    44.4965    97.9099    38.1248
7.62  16.644932    75.5726   226.7178    57.1344    57.1344    44.4965    44.4965    44.4965    97.9099    38.1248
8.29  16.644932    75.5726   226.7177    57.1343    57.1343    44.4965    44.4965    44.4965    97.9098    38.1248
8.99  16.644933    75.5725   226.7176    57.1343    57.1343    44.4965    44.4965    44.4965    97.9098    38.1248
9.72  16.644934    75.5725   226.7175    57.1343    57.1343    44.4965    44.4965    44.4965    97.9098    38.1248
10.48  16.644934    75.5724   226.7173    57.1342    57.1342    44.4965    44.4965    44.4965    97.9097    38.1247
11.26  16.644935    75.5723   226.7170    57.1342    57.1342    44.4965    44.4965    44.4965    97.9097    38.1247
12.07  16.644937    75.5723   226.7168    57.1341    57.1341    44.4965    44.4965    44.4965    97.9096    38.1247
12.91  16.644938    75.5721   226.7164    57.1340    57.1340    44.4964    44.4964    44.4964    97.9095    38.1247
13.78  16.644940    75.5720   226.7159    57.1339    57.1339    44.4964    44.4964    44.4964    97.9094    38.1246
14.68  16.644943    75.5718   226.7153    57.1338    57.1338    44.4964    44.4964    44.4964    97.9092    38.1246
15.6  16.644946    75.5715   226.7145    57.1336    57.1336    44.4963    44.4963    44.4963    97.9090    38.1245
16.55  16.644950    75.5712   226.7136    57.1333    57.1333    44.4962    44.4962    44.4962    97.9088    38.1244
17.53  16.644956    75.5708   226.7124    57.1330    57.1330    44.4962    44.4962    44.4962    97.9085    38.1243
18.54  16.644962    75.5703   226.7108    57.1327    57.1327    44.4961    44.4961    44.4961    97.9081    38.1242
19.58  16.644970    75.5696   226.7089    57.1322    57.1322    44.4959    44.4959    44.4959    97.9076    38.1240
20.65  16.644980    75.5688   226.7065    57.1316    57.1316    44.4958    44.4958    44.4958    97.9070    38.1238
21.74  16.644992    75.5679   226.7036    57.1309    57.1309    44.4956    44.4956    44.4956    97.9063    38.1235
22.86  16.645006    75.5667   226.7000    57.1300    57.1300    44.4954    44.4954    44.4954    97.9054    38.1232
24.01  16.645025    75.5652   226.6956    57.1289    57.1289    44.4951    44.4951    44.4951    97.9042    38.1229
25.19  16.645047    75.5634   226.6903    57.1276    57.1276    44.4948    44.4948    44.4948    97.9029    38.1224
26.4  16.645075    75.5613   226.6839    57.1261    57.1261    44.4944    44.4944    44.4944    97.9013    38.1218
27.63  16.645108    75.5588   226.6763    57.1242    57.1242    44.4939    44.4939    44.4939    97.8993    38.1212
28.9  16.645148    75.5558   226.6673    57.1220    57.1220    44.4933    44.4933    44.4933    97.8970    38.1203
30.19  16.645196    75.5523   226.6568    57.1194    57.1194    44.4925    44.4925    44.4925    97.8942    38.1194
31.51  16.645252    75.5482   226.6446    57.1164    57.1164    44.4917    44.4917    44.4917    97.8910    38.1183
32.85  16.645319    75.5435   226.6305    57.1130    57.1130    44.4907    44.4907    44.4907    97.8873    38.1170
34.23  16.645399    75.5381   226.6143    57.1090    57.1090    44.4894    44.4894    44.4894    97.8830    38.1155
35.63  16.645491    75.5320   226.5959    57.1045    57.1045    44.4881    44.4881    44.4881    97.8780    38.1137
37.07  16.645598    75.5250   226.5749    57.0994    57.0994    44.4864    44.4864    44.4864    97.8723    38.1117
38.53  16.645722    75.5172   226.5515    57.0937    57.0937    44.4846    44.4846    44.4846    97.8659    38.1095
40.02  16.645864    75.5084   226.5252    57.0873    57.0873    44.4824    44.4824    44.4824    97.8586    38.1069
41.53  16.646024    75.4987   226.4962    57.0802    57.0802    44.4800    44.4800    44.4800    97.8505    38.1040
43.08  16.646208    75.4880   226.4639    57.0724    57.0724    44.4772    44.4772    44.4772    97.8413    38.1008
44.65  16.646413    75.4762   226.4285    57.0638    57.0638    44.4741    44.4741    44.4741    97.8312    38.0972
46.25  16.646645    75.4632   226.3897    57.0544    57.0544    44.4706    44.4706    44.4706    97.8201    38.0932
47.88  16.646903    75.4491   226.3473    57.0441    57.0441    44.4667    44.4667    44.4667    97.8077    38.0888
49.54  16.647190    75.4338   226.3013    57.0329    57.0329    44.4623    44.4623    44.4623    97.7942    38.0840
51.23  16.647508    75.4172   226.2515    57.0209    57.0209    44.4575    44.4575    44.4575    97.7795    38.0787
52.94  16.647857    75.3994   226.1981    57.0080    57.0080    44.4522    44.4522    44.4522    97.7635    38.0729
54.68  16.648240    75.3802   226.1407    56.9941    56.9941    44.4464    44.4464    44.4464    97.7462    38.0667
56.45  16.648659    75.3598   226.0793    56.9793    56.9793    44.4400    44.4400    44.4400    97.7275    38.0599
58.25  16.649116    75.3379   226.0137    56.9634    56.9634    44.4331    44.4331    44.4331    97.7073    38.0526
60.08  16.649612    75.3146   225.9439    56.9466    56.9466    44.4256    44.4256    44.4256    97.6856    38.0447
61.94  16.650149    75.2900   225.8699    56.9288    56.9288    44.4175    44.4175    44.4175    97.6625    38.0362
63.82  16.650725    75.2640   225.7920    56.9100    56.9100    44.4087    44.4087    44.4087    97.6379    38.0273
65.73  16.651345    75.2366   225.7097    56.8902    56.8902    44.3993    44.3993    44.3993    97.6117    38.0177
67.67  16.652011    75.2077   225.6231    56.8694    56.8694    44.3893    44.3893    44.3893    97.5838    38.0075
69.64  16.652722    75.1774   225.5321    56.8476    56.8476    44.3785    44.3785    44.3785    97.5543    37.9966
71.64  16.653481    75.1456   225.4368    56.8247    56.8247    44.3670    44.3670    44.3670    97.5232    37.9851
73.66  16.654285    75.1125   225.3375    56.8009    56.8009    44.3548    44.3548    44.3548    97.4905    37.9731
75.71  16.655139    75.0780   225.2339    56.7761    56.7761    44.3419    44.3419    44.3419    97.4561    37.9604
77.79  16.656043    75.0420   225.1259    56.7502    56.7502    44.3282    44.3282    44.3282    97.4199    37.9470
79.9  16.656999    75.0045   225.0136    56.7233    56.7233    44.3137    44.3137    44.3137    97.3820    37.9329
82.04  16.658008    74.9656   224.8969    56.6954    56.6954    44.2985    44.2985    44.2985    97.3423    37.9182
84.21  16.659070    74.9253   224.7760    56.6664    56.6664    44.2824    44.2824    44.2824    97.3009    37.9027
86.4  16.660181    74.8838   224.6513    56.6366    56.6366    44.2656    44.2656    44.2656    97.2578    37.8867
88.62  16.661346    74.8408   224.5224    56.6058    56.6058    44.2480    44.2480    44.2480    97.2130    37.8699
90.87  16.662567    74.7964   224.3892    56.5740    56.5740    44.2295    44.2295    44.2295    97.1664    37.8525
93.15  16.663843    74.7506   224.2519    56.5413    56.5413    44.2102    44.2102    44.2102    97.1180    37.8344
95.46  16.665176    74.7035   224.1105    56.5075    56.5075    44.1900    44.1900    44.1900    97.0677    37.8155
97.79  16.666559    74.6552   223.9656    56.4729    56.4729    44.1691    44.1691    44.1691    97.0159    37.7961
100.15  16.667999    74.6055   223.8166    56.4374    56.4374    44.1473    44.1473    44.1473    96.9623    37.7759
102.55  16.669502    74.5543   223.6630    56.4008    56.4008    44.1246    44.1246    44.1246    96.9067    37.7549
104.97  16.671057    74.5020   223.5061    56.3634    56.3634    44.1011    44.1011    44.1011    96.8495    37.7334
107.41  16.672662    74.4486   223.3459    56.3252    56.3252    44.0769    44.0769    44.0769    96.7907    37.7112
109.89  16.674332    74.3937   223.1811    56.2859    56.2859    44.0516    44.0516    44.0516    96.7299    37.6882
112.39  16.676053    74.3377   223.0132    56.2459    56.2459    44.0256    44.0256    44.0256    96.6676    37.6646
114.93  16.677839    74.2803   222.8408    56.2048    56.2048    43.9987    43.9987    43.9987    96.6032    37.6402
117.49  16.679676    74.2218   222.6653    56.1630    56.1630    43.9709    43.9709    43.9709    96.5373    37.6152
120.07  16.681564    74.1623   222.4868    56.1205    56.1205    43.9424    43.9424    43.9424    96.4699    37.5896
122.69  16.683517    74.1013   222.3039    56.0769    56.0769    43.9129    43.9129    43.9129    96.4005    37.5631
125.34  16.685528    74.0391   222.1174    56.0324    56.0324    43.8826    43.8826    43.8826    96.3293    37.5360
128.01  16.687590    73.9760   221.9280    55.9873    55.9873    43.8515    43.8515    43.8515    96.2566    37.5084
130.71  16.689710    73.9117   221.7350    55.9413    55.9413    43.8195    43.8195    43.8195    96.1822    37.4800
133.44  16.691887    73.8462   221.5385    55.8944    55.8944    43.7867    43.7867    43.7867    96.1060    37.4509
136.2  16.694123    73.7795   221.3385    55.8467    55.8467    43.7530    43.7530    43.7530    96.0282    37.4211
138.98  16.696407    73.7119   221.1358    55.7983    55.7983    43.7186    43.7186    43.7186    95.9488    37.3908
141.8  16.698758    73.6430   220.9289    55.7489    55.7489    43.6831    43.6831    43.6831    95.8675    37.3597
144.64  16.701158    73.5731   220.7193    55.6988    55.6988    43.6470    43.6470    43.6470    95.7848    37.3280
147.51  16.703615    73.5021   220.5064    55.6480    55.6480    43.6100    43.6100    43.6100    95.7003    37.2956
150.41  16.706130    73.4300   220.2901    55.5962    55.5962    43.5721    43.5721    43.5721    95.6142    37.2625
153.34  16.708701    73.3568   220.0705    55.5437    55.5437    43.5334    43.5334    43.5334    95.5264    37.2288
156.29  16.711321    73.2828   219.8483    55.4905    55.4905    43.4940    43.4940    43.4940    95.4372    37.1945
159.28  16.714006    73.2074   219.6221    55.4363    55.4363    43.4536    43.4536    43.4536    95.3460    37.1594
162.29  16.716739    73.1311   219.3934    55.3815    55.3815    43.4125    43.4125    43.4125    95.2534    37.1238
165.33  16.719529    73.0538   219.1615    55.3259    55.3259    43.3705    43.3705    43.3705    95.1592    37.0875
168.4  16.722375    72.9754   218.9263    55.2694    55.2694    43.3278    43.3278    43.3278    95.0634    37.0505
171.49  16.725268    72.8963   218.6888    55.2123    55.2123    43.2843    43.2843    43.2843    94.9661    37.0131
174.62  16.728227    72.8158   218.4473    55.1543    55.1543    43.2399    43.2399    43.2399    94.8670    36.9748
177.77  16.731232    72.7345   218.2034    55.0955    55.0955    43.1948    43.1948    43.1948    94.7665    36.9360
180.95  16.734293    72.6521   217.9563    55.0360    55.0360    43.1488    43.1488    43.1488    94.6643    36.8965
184.16  16.737410    72.5687   217.7061    54.9757    54.9757    43.1020    43.1020    43.1020    94.5605    36.8564
187.4  16.740583    72.4843   217.4528    54.9145    54.9145    43.0545    43.0545    43.0545    94.4551    36.8156
190.66  16.743801    72.3991   217.1972    54.8527    54.8527    43.0062    43.0062    43.0062    94.3484    36.7743
193.96  16.747084    72.3126   216.9377    54.7899    54.7899    42.9570    42.9570    42.9570    94.2397    36.7322
197.28  16.750413    72.2253   216.6759    54.7265    54.7265    42.9071    42.9071    42.9071    94.1298    36.6896
200.63  16.753798    72.1370   216.4111    54.6622    54.6622    42.8564    42.8564    42.8564    94.0182    36.6463
204.01  16.757237    72.0477   216.1431    54.5972    54.5972    42.8049    42.8049    42.8049    93.9050    36.6024
207.41  16.760722    71.9576   215.8729    54.5315    54.5315    42.7528    42.7528    42.7528    93.7905    36.5580
210.85  16.764271    71.8663   215.5989    54.4647    54.4647    42.6997    42.6997    42.6997    93.6741    36.5128
214.31  16.767865    71.7742   215.3226    54.3973    54.3973    42.6460    42.6460    42.6460    93.5564    36.4670
217.8  16.771515    71.6811   215.0433    54.3291    54.3291    42.5914    42.5914    42.5914    93.4371    36.4207
221.32  16.775219    71.5870   214.7609    54.2600    54.2600    42.5361    42.5361    42.5361    93.3162    36.3736
224.87  16.778978    71.4918   214.4755    54.1901    54.1901    42.4799    42.4799    42.4799    93.1936    36.3260
228.45  16.782791    71.3957   214.1871    54.1194    54.1194    42.4230    42.4230    42.4230    93.0695    36.2777
232.05  16.786649    71.2988   213.8964    54.0479    54.0479    42.3654    42.3654    42.3654    92.9441    36.2288
235.68  16.790562    71.2009   213.6028    53.9756    53.9756    42.3071    42.3071    42.3071    92.8170    36.1794
239.34  16.794529    71.1020   213.3061    53.9025    53.9025    42.2479    42.2479    42.2479    92.6884    36.1292
243.03  16.798551    71.0021   213.0064    53.8285    53.8285    42.1880    42.1880    42.1880    92.5582    36.0785
246.75  16.802628    70.9012   212.7037    53.7536    53.7536    42.1273    42.1273    42.1273    92.4263    36.0271
250.49  16.806749    70.7996   212.3988    53.6780    53.6780    42.0659    42.0659    42.0659    92.2932    35.9751
254.27  16.810936    70.6967   212.0901    53.6013    53.6013    42.0036    42.0036    42.0036    92.1581    35.9224
258.07  16.815166    70.5930   211.7791    53.5239    53.5239    41.9407    41.9407    41.9407    92.0218    35.8692
261.9  16.819452    70.4884   211.4652    53.4456    53.4456    41.8770    41.8770    41.8770    91.8838    35.8153
265.75  16.823781    70.3830   211.1490    53.3667    53.3667    41.8126    41.8126    41.8126    91.7446    35.7609
269.64  16.828176    70.2763   210.8290    53.2866    53.2866    41.7473    41.7473    41.7473    91.6033    35.7057
273.56  16.832627    70.1687   210.5060    53.2055    53.2055    41.6813    41.6813    41.6813    91.4605    35.6499
277.5  16.837121    70.0603   210.1808    53.1238    53.1238    41.6146    41.6146    41.6146    91.3164    35.5935
281.47  16.841671    69.9509   209.8526    53.0411    53.0411    41.5471    41.5471    41.5471    91.1706    35.5365
285.47  16.846276    69.8404   209.5213    52.9575    52.9575    41.4789    41.4789    41.4789    91.0232    35.4788
289.49  16.850925    69.7293   209.1878    52.8731    52.8731    41.4100    41.4100    41.4100    90.8745    35.4206
293.55  16.855641    69.6168   208.8505    52.7875    52.7875    41.3402    41.3402    41.3402    90.7239    35.3616
297.63  16.860401    69.5036   208.5109    52.7012    52.7012    41.2697    41.2697    41.2697    90.5719    35.3021
301.74  16.865217    69.3894   208.1683    52.6139    52.6139    41.1985    41.1985    41.1985    90.4182    35.2419
305.88  16.870089    69.2742   207.8227    52.5256    52.5256    41.1265    41.1265    41.1265    90.2629    35.1810
310.05  16.875017    69.1580   207.4740    52.4363    52.4363    41.0537    41.0537    41.0537    90.1060    35.1195
314.25  16.880001    69.0407   207.1222    52.3460    52.3460    40.9801    40.9801    40.9801    89.9473    35.0572
318.47  16.885030    68.9227   206.7682    52.2549    52.2549    40.9058    40.9058    40.9058    89.7874    34.9945
322.73  16.890127    68.8034   206.4103    52.1625    52.1625    40.8307    40.8307    40.8307    89.6254    34.9309
327.01  16.895270    68.6834   206.0502    52.0693    52.0693    40.7549    40.7549    40.7549    89.4620    34.8668
331.32  16.900469    68.5623   205.6870    51.9751    51.9751    40.6783    40.6783    40.6783    89.2970    34.8020
335.65  16.905713    68.4405   205.3215    51.8800    51.8800    40.6011    40.6011    40.6011    89.1306    34.7366
340.02  16.911027    68.3173   204.9520    51.7837    51.7837    40.5229    40.5229    40.5229    88.9622    34.6705
344.41  16.916386    68.1935   204.5804    51.6864    51.6864    40.4441    40.4441    40.4441    88.7924    34.6037
348.83  16.921803    68.0685   204.2056    51.5881    51.5881    40.3644    40.3644    40.3644    88.6209    34.5363
353.28  16.927278    67.9425   203.8276    51.4887    51.4887    40.2840    40.2840    40.2840    88.4476    34.4682
357.76  16.932811    67.8155   203.4466    51.3881    51.3881    40.2028    40.2028    40.2028    88.2726    34.3993
362.27  16.938403    67.6875   203.0624    51.2864    51.2864    40.1208    40.1208    40.1208    88.0958    34.3298
366.8  16.944041    67.5586   202.6759    51.1838    51.1838    40.0381    40.0381    40.0381    87.9177    34.2597
371.37  16.949751    67.4285   202.2854    51.0799    51.0799    39.9545    39.9545    39.9545    87.7373    34.1887
375.96  16.955507    67.2975   201.8926    50.9749    50.9749    39.8702    39.8702    39.8702    87.5556    34.1171
380.58  16.961323    67.1655   201.4966    50.8688    50.8688    39.7851    39.7851    39.7851    87.3721    34.0448
385.22  16.967186    67.0328   201.0983    50.7617    50.7617    39.6994    39.6994    39.6994    87.1872    33.9720
389.9  16.973122    66.8986   200.6959    50.6532    50.6532    39.6127    39.6127    39.6127    87.0001    33.8982
394.6  16.979105    66.7637   200.2912    50.5436    50.5436    39.5253    39.5253    39.5253    86.8116    33.8239
399.34  16.985163    66.6275   199.8824    50.4326    50.4326    39.4370    39.4370    39.4370    86.6208    33.7487
404.1  16.991268    66.4904   199.4712    50.3206    50.3206    39.3479    39.3479    39.3479    86.4286    33.6729
408.88  16.997422    66.3526   199.0577    50.2075    50.2075    39.2583    39.2583    39.2583    86.2349    33.5965
413.7  17.003651    66.2134   198.6401    50.0929    50.0929    39.1676    39.1676    39.1676    86.0389    33.5191
418.55  17.009941    66.0731   198.2192    49.9770    49.9770    39.0761    39.0761    39.0761    85.8411    33.4410
423.42  17.016281    65.9320   197.7959    49.8600    49.8600    38.9839    38.9839    38.9839    85.6418    33.3623
428.32  17.022684    65.7898   197.3693    49.7417    49.7417    38.8909    38.8909    38.8909    85.4405    33.2829
433.25  17.029150    65.6465   196.9395    49.6220    49.6220    38.7970    38.7970    38.7970    85.2374    33.2026
438.21  17.035680    65.5021   196.5063    49.5009    49.5009    38.7023    38.7023    38.7023    85.0323    33.1215
443.19  17.042261    65.3569   196.0707    49.3787    49.3787    38.6069    38.6069    38.6069    84.8257    33.0399
448.21  17.048919    65.2103   195.6309    49.2548    49.2548    38.5105    38.5105    38.5105    84.6167    32.9572
453.25  17.055628    65.0629   195.1887    49.1298    49.1298    38.4133    38.4133    38.4133    84.4061    32.8740
458.32  17.062403    64.9143   194.7430    49.0033    49.0033    38.3154    38.3154    38.3154    84.1935    32.7899
463.42  17.069243    64.7647   194.2941    48.8753    48.8753    38.2165    38.2165    38.2165    83.9790    32.7050
468.55  17.076149    64.6139   193.8417    48.7458    48.7458    38.1168    38.1168    38.1168    83.7624    32.6193
473.7  17.083108    64.4623   193.3868    48.6151    48.6151    38.0164    38.0164    38.0164    83.5442    32.5329
478.89  17.090148    64.3092   192.9277    48.4825    48.4825    37.9149    37.9149    37.9149    83.3235    32.4455
484.1  17.097242    64.1553   192.4660    48.3487    48.3487    37.8128    37.8128    37.8128    83.1012    32.3574
489.34  17.104403    64.0003   192.0008    48.2133    48.2133    37.7097    37.7097    37.7097    82.8768    32.2685
494.61  17.111633    63.8441 191.5323+0.0000j 48.0763+0.0000j 48.0763+0.0000j 37.6057+0.0000j 37.6057-0.0000j 37.6057+0.0000j    82.6503    32.1787
499.9  17.118918    63.6870   191.0611    47.9380    47.9380    37.5011    37.5011    37.5011    82.4221    32.0882
505.23  17.126286    63.5285   190.5856    47.7977    47.7977    37.3953    37.3953    37.3953    82.1914    31.9967
510.58  17.133711    63.3692   190.1075    47.6560    47.6560    37.2888    37.2888    37.2888    81.9589    31.9045
515.96  17.141205    63.2086   189.6259    47.5126    47.5126    37.1814    37.1814    37.1814    81.7242    31.8114
521.37  17.148771    63.0469   189.1408    47.3675    47.3675    37.0731    37.0731    37.0731    81.4873    31.7174
526.81  17.156408    62.8840   188.6521    47.2207    47.2207    36.9639    36.9639    36.9639    81.2483    31.6224
532.27  17.164103    62.7203   188.1608    47.0723    47.0723    36.8539    36.8539    36.8539    81.0074    31.5268
537.76  17.171871    62.5553   187.6659    46.9222    46.9222    36.7430    36.7430    36.7430    80.7643    31.4302
543.29  17.179727    62.3888   187.1665    46.7699    46.7699    36.6309    36.6309    36.6309    80.5184    31.3325
548.84  17.187642    62.2215   186.6644    46.6161    46.6161    36.5181    36.5181    36.5181    80.2707    31.2341
554.41  17.195617    62.0532   186.1596    46.4606    46.4606    36.4045    36.4045    36.4045    80.0211    31.1348
560.02  17.203681    61.8834   185.6503    46.3030    46.3030    36.2898    36.2898    36.2898    79.7688    31.0345
565.66  17.211821    61.7124   185.1373    46.1434    46.1434    36.1741    36.1741    36.1741    79.5141    30.9331
571.32  17.220024    61.5405   184.6215    45.9821    45.9821    36.0577    36.0577    36.0577    79.2574    30.8310
577.01  17.228303    61.3674   184.1021    45.8188    45.8188    35.9402    35.9402    35.9402    78.9983    30.7279
582.73  17.236660    61.1930   183.5790    45.6535    45.6535    35.8218    35.8218    35.8218    78.7368    30.6238
588.48  17.245095    61.0174   183.0521    45.4860    45.4860    35.7024    35.7024    35.7024    78.4728    30.5186
594.25  17.253595    60.8408   182.5224    45.3168    45.3168    35.5822    35.5822    35.5822    78.2068    30.4127
600.06  17.262190    60.6627   181.9880    45.1451    45.1451    35.4607    35.4607    35.4607    77.9378    30.3055
605.89  17.270850    60.4836   181.4508    44.9715    44.9715    35.3385    35.3385    35.3385    77.6668    30.1974
611.75  17.279592    60.3032   180.9097    44.7958    44.7958    35.2153    35.2153    35.2153    77.3932    30.0883
617.64  17.288415    60.1216   180.3649    44.6177    44.6177    35.0910    35.0910    35.0910    77.1169    29.9781
623.55  17.297307    59.9390   179.8171    44.4377    44.4377    34.9659    34.9659    34.9659    76.8386    29.8671
629.5  17.306297    59.7549   179.2646    44.2550    44.2550    34.8395    34.8395    34.8395    76.5571    29.7547
635.47  17.315356    59.5697   178.7090    44.0703    44.0703    34.7124    34.7124    34.7124    76.2734    29.6415
641.47  17.324501    59.3832   178.1496    43.8832    43.8832    34.5841    34.5841    34.5841    75.9870    29.5271
647.5  17.333732    59.1954   177.5863    43.6936    43.6936    34.4548    34.4548    34.4548    75.6978    29.4116
653.56  17.343050    59.0063   177.0190    43.5017    43.5017    34.3244    34.3244    34.3244    75.4060    29.2950
659.65  17.352456    58.8159   176.4477    43.3073    43.3073    34.1929    34.1929    34.1929    75.1113    29.1772
665.76  17.361936    58.6245   175.8734    43.1107    43.1107    34.0606    34.0606    34.0606    74.8144    29.0585
671.9  17.371505    58.4317   175.2951    42.9116    42.9116    33.9272    33.9272    33.9272    74.5146    28.9386
678.07  17.381164    58.2376   174.7127    42.7100    42.7100    33.7926    33.7926    33.7926    74.2120    28.8176
684.27  17.390915    58.0421   174.1263    42.5058    42.5058    33.6570    33.6570    33.6570    73.9065    28.6953
690.5  17.400759    57.8453   173.5358    42.2990    42.2990    33.5202    33.5202    33.5202    73.5981    28.5719
696.75  17.410681    57.6474   172.9421    42.0899    42.0899    33.3825    33.3825    33.3825    73.2873    28.4475
703.04  17.420713    57.4478   172.3433    41.8779    41.8779    33.2435    33.2435    33.2435    72.9731    28.3217
709.35  17.430825    57.2471   171.7414    41.6636    41.6636    33.1035    33.1035    33.1035    72.6564    28.1948
715.69  17.441033    57.0451   171.1352    41.4465    41.4465    32.9623    32.9623    32.9623    72.3367    28.0667
722.06  17.451339    56.8416   170.5249    41.2268    41.2268    32.8200    32.8200    32.8200    72.0140    27.9374
728.45  17.461728    56.6371   169.9112    41.0046    41.0046    32.6768    32.6768    32.6768    71.6887    27.8070
734.88  17.472233    56.4308   169.2924    40.7794    40.7794    32.5321    32.5321    32.5321    71.3599    27.6752
741.33  17.482824    56.2234   168.6702    40.5517    40.5517    32.3865    32.3865    32.3865    71.0284    27.5422
747.81  17.493516    56.0146   168.0437    40.3212    40.3212    32.2396    32.2396    32.2396    70.6939    27.4080
754.32  17.504312    55.8043   167.4128    40.0879    40.0879    32.0916    32.0916    32.0916    70.3562    27.2725
760.86  17.515213    55.5925   166.7776    39.8517    39.8517    31.9423    31.9423    31.9423    70.0152    27.1357
767.42  17.526203    55.3796   166.1389    39.6129    39.6129    31.7920    31.7920    31.7920    69.6716    26.9978
774.01  17.537300    55.1653   165.4958    39.3713    39.3713    31.6405    31.6405    31.6405    69.3248    26.8585
780.64  17.548523    54.9491   164.8473    39.1263    39.1263    31.4874    31.4874    31.4874    68.9741    26.7177
787.29  17.559839    54.7317   164.1952    38.8787    38.8787    31.3334    31.3334    31.3334    68.6207    26.5758
793.96  17.571249    54.5132   163.5396    38.6285    38.6285    31.1782    31.1782    31.1782    68.2645    26.4327
800.67  17.582789    54.2928   162.8785    38.3750    38.3750    31.0216    31.0216    31.0216    67.9044    26.2880
807.4  17.594426    54.0713   162.2138    38.1187    38.1187    30.8639    30.8639    30.8639    67.5414    26.1421
814.17  17.606197    53.8478   161.5434    37.8590    37.8590    30.7046    30.7046    30.7046    67.1744    25.9946
820.96  17.618067    53.6231   160.8694    37.5966    37.5966    30.5442    30.5442    30.5442    66.8045    25.8459
827.78  17.630055    53.3969   160.1906    37.3311    37.3311    30.3825    30.3825    30.3825    66.4312    25.6957
834.63  17.642164    53.1691   159.5072    37.0624    37.0624    30.2195    30.2195    30.2195    66.0543    25.5442
841.5  17.654378    52.9400   158.8200    36.7910    36.7910    30.0553    30.0553    30.0553    65.6744    25.3914
848.4  17.666715    52.7093   158.1280    36.5163    36.5163    29.8897    29.8897    29.8897    65.2909    25.2371
855.34  17.679195    52.4767   157.4301    36.2381    36.2381    29.7225    29.7225    29.7225    64.9032    25.0811
862.3  17.691784    52.2428   156.7284    35.9570    35.9570    29.5541    29.5541    29.5541    64.5125    24.9239
869.29  17.704502    52.0073   156.0218    35.6726    35.6726    29.3844    29.3844    29.3844    64.1180    24.7651
876.3  17.717332    51.7704   155.3112    35.3854    35.3854    29.2134    29.2134    29.2134    63.7204    24.6051
883.35  17.730313    51.5315   154.5946    35.0944    35.0944    29.0407    29.0407    29.0407    63.3185    24.4433
890.42  17.743410    51.2913   153.8740    34.8005    34.8005    28.8668    28.8668    28.8668    62.9133    24.2802
897.52  17.756643    51.0494   153.1483    34.5033    34.5033    28.6914    28.6914    28.6914    62.5043    24.1155
904.65  17.770015    50.8058   152.4175    34.2027    34.2027    28.5145    28.5145    28.5145    62.0914    23.9493
911.81  17.783527    50.5605   151.6816    33.8987    33.8987    28.3362    28.3362    28.3362    61.6746    23.7814
918.99  17.797163    50.3138   150.9414    33.5917    33.5917    28.1565    28.1565    28.1565    61.2545    23.6122
926.21  17.810962    50.0650   150.1950    33.2808    33.2808    27.9751    27.9751    27.9751    60.8298    23.4412
933.45  17.824889    49.8148   149.4444    32.9669    32.9669    27.7923    27.7923    27.7923    60.4016    23.2688
