# T(K) V(Ang^3) B(GPa) C11 C12 C44 E(GPa) G(GPa) B_correction_factor
0.0  16.644931    75.5727   113.6623    56.5279    44.4965    97.9099    38.1248     1.0081
0.05  16.644931    75.5727   113.6623    56.5279    44.4965    97.9099    38.1248     1.0081
0.13  16.644931    75.5727   113.6623    56.5279    44.4965    97.9099    38.1248     1.0081
0.24  16.644931    75.5727   113.6623    56.5279    44.4965    97.9099    38.1248     1.0081
0.37  16.644931    75.5727   113.6623    56.5279    44.4965    97.9099    38.1248     1.0081
0.53  16.644931    75.5727   113.6623    56.5279    44.4965    97.9099    38.1248     1.0081
0.73  16.644931    75.5727   113.6623    56.5279    44.4965    97.9099    38.1248     1.0081
0.94  16.644931    75.5727   113.6623    56.5279    44.4965    97.9099    38.1248     1.0081
1.19  16.644931    75.5727   113.6623    56.5279    44.4965    97.9099    38.1248     1.0081
1.47  16.644931    75.5727   113.6623    56.5279    44.4965    97.9099    38.1248     1.0081
1.77  16.644931    75.5727   113.6623    56.5279    44.4965    97.9099    38.1248     1.0081
2.1  16.644931    75.5727   113.6623    56.5279    44.4965    97.9099    38.1248     1.0081
2.47  16.644931    75.5727   113.6623    56.5279    44.4965    97.9099    38.1248     1.0081
2.85  16.644931    75.5727   113.6623    56.5279    44.4965    97.9099    38.1248     1.0081
3.27  16.644931    75.5727   113.6623    56.5279    44.4965    97.9099    38.1248     1.0081
3.72  16.644931    75.5727   113.6623    56.5279    44.4965    97.9099    38.1248     1.0081
4.19  16.644931    75.5727   113.6623    56.5279    44.4965    97.9099    38.1248     1.0081
4.69  16.644931    75.5727   113.6623    56.5278    44.4965    97.9099    38.1248     1.0081
5.22  16.644931    75.5726   113.6623    56.5278    44.4965    97.9099    38.1248     1.0081
5.78  16.644931    75.5726   113.6622    56.5278    44.4965    97.9099    38.1248     1.0081
6.37  16.644931    75.5726   113.6622    56.5278    44.4965    97.9099    38.1248     1.0081
6.98  16.644932    75.5726   113.6622    56.5278    44.4965    97.9099    38.1248     1.0081
7.62  16.644932    75.5726   113.6622    56.5278    44.4965    97.9099    38.1248     1.0081
8.29  16.644932    75.5726   113.6621    56.5278    44.4965    97.9098    38.1248     1.0081
8.99  16.644933    75.5725   113.6621    56.5278    44.4965    97.9098    38.1248     1.0081
9.72  16.644934    75.5725   113.6620    56.5277    44.4965    97.9098    38.1248     1.0081
10.48  16.644934    75.5724   113.6619    56.5277    44.4965    97.9097    38.1247     1.0081
11.26  16.644935    75.5723   113.6618    56.5276    44.4965    97.9097    38.1247     1.0081
12.07  16.644937    75.5723   113.6617    56.5275    44.4965    97.9096    38.1247     1.0081
12.91  16.644938    75.5721   113.6615    56.5275    44.4964    97.9095    38.1247     1.0081
13.78  16.644940    75.5720   113.6612    56.5273    44.4964    97.9094    38.1246     1.0081
14.68  16.644943    75.5718   113.6609    56.5272    44.4964    97.9092    38.1246     1.0081
15.6  16.644946    75.5715   113.6606    56.5270    44.4963    97.9090    38.1245     1.0081
16.55  16.644950    75.5712   113.6601    56.5267    44.4962    97.9088    38.1244     1.0081
17.53  16.644956    75.5708   113.6595    56.5264    44.4962    97.9085    38.1243     1.0081
18.54  16.644962    75.5703   113.6587    56.5261    44.4961    97.9081    38.1242     1.0081
19.58  16.644970    75.5696   113.6578    56.5256    44.4959    97.9076    38.1240     1.0081
20.65  16.644980    75.5688   113.6566    56.5250    44.4958    97.9070    38.1238     1.0081
21.74  16.644992    75.5679   113.6551    56.5242    44.4956    97.9063    38.1235     1.0081
22.86  16.645006    75.5667   113.6533    56.5233    44.4954    97.9054    38.1232     1.0081
24.01  16.645025    75.5652   113.6512    56.5222    44.4951    97.9042    38.1229     1.0081
25.19  16.645047    75.5634   113.6485    56.5209    44.4948    97.9029    38.1224     1.0080
26.4  16.645075    75.5613   113.6453    56.5193    44.4944    97.9013    38.1218     1.0080
27.63  16.645108    75.5588   113.6416    56.5174    44.4939    97.8993    38.1212     1.0080
28.9  16.645148    75.5558   113.6371    56.5151    44.4933    97.8970    38.1203     1.0080
30.19  16.645196    75.5523   113.6319    56.5125    44.4925    97.8942    38.1194     1.0079
31.51  16.645252    75.5482   113.6258    56.5094    44.4917    97.8910    38.1183     1.0079
32.85  16.645319    75.5435   113.6188    56.5058    44.4907    97.8873    38.1170     1.0078
34.23  16.645399    75.5381   113.6108    56.5018    44.4894    97.8830    38.1155     1.0078
35.63  16.645491    75.5320   113.6017    56.4971    44.4881    97.8780    38.1137     1.0077
37.07  16.645598    75.5250   113.5913    56.4918    44.4864    97.8723    38.1117     1.0077
38.53  16.645722    75.5172   113.5796    56.4859    44.4846    97.8659    38.1095     1.0076
40.02  16.645864    75.5084   113.5666    56.4793    44.4824    97.8586    38.1069     1.0075
41.53  16.646024    75.4987   113.5522    56.4720    44.4800    97.8505    38.1040     1.0074
43.08  16.646208    75.4880   113.5362    56.4638    44.4772    97.8413    38.1008     1.0073
44.65  16.646413    75.4762   113.5187    56.4549    44.4741    97.8312    38.0972     1.0072
46.25  16.646645    75.4632   113.4995    56.4451    44.4706    97.8201    38.0932     1.0071
47.88  16.646903    75.4491   113.4785    56.4344    44.4667    97.8077    38.0888     1.0070
49.54  16.647190    75.4338   113.4557    56.4228    44.4623    97.7942    38.0840     1.0069
51.23  16.647508    75.4172   113.4311    56.4102    44.4575    97.7795    38.0787     1.0067
52.94  16.647857    75.3994   113.4047    56.3967    44.4522    97.7635    38.0729     1.0066
54.68  16.648240    75.3802   113.3763    56.3822    44.4464    97.7462    38.0667     1.0064
56.45  16.648659    75.3598   113.3459    56.3667    44.4400    97.7275    38.0599     1.0063
58.25  16.649116    75.3379   113.3135    56.3501    44.4331    97.7073    38.0526     1.0061
60.08  16.649612    75.3146   113.2791    56.3324    44.4256    97.6856    38.0447     1.0059
61.94  16.650149    75.2900   113.2425    56.3137    44.4175    97.6625    38.0362     1.0057
63.82  16.650725    75.2640   113.2040    56.2940    44.4087    97.6379    38.0273     1.0055
65.73  16.651345    75.2366   113.1634    56.2732    44.3993    97.6117    38.0177     1.0053
67.67  16.652011    75.2077   113.1207    56.2512    44.3893    97.5838    38.0075     1.0051
69.64  16.652722    75.1774   113.0758    56.2282    44.3785    97.5543    37.9966     1.0049
71.64  16.653481    75.1456   113.0287    56.2040    44.3670    97.5232    37.9851     1.0047
73.66  16.654285    75.1125   112.9798    56.1789    44.3548    97.4905    37.9731     1.0045
75.71  16.655139    75.0780   112.9287    56.1526    44.3419    97.4561    37.9604     1.0042
77.79  16.656043    75.0420   112.8754    56.1253    44.3282    97.4199    37.9470     1.0040
79.9  16.656999    75.0045   112.8201    56.0968    44.3137    97.3820    37.9329     1.0037
82.04  16.658008    74.9656   112.7626    56.0672    44.2985    97.3423    37.9182     1.0035
84.21  16.659070    74.9253   112.7030    56.0365    44.2824    97.3009    37.9027     1.0032
86.4  16.660181    74.8838   112.6415    56.0049    44.2656    97.2578    37.8867     1.0030
88.62  16.661346    74.8408   112.5780    55.9722    44.2480    97.2130    37.8699     1.0027
90.87  16.662567    74.7964   112.5124    55.9384    44.2295    97.1664    37.8525     1.0024
93.15  16.663843    74.7506   112.4448    55.9036    44.2102    97.1180    37.8344     1.0021
95.46  16.665176    74.7035   112.3752    55.8677    44.1900    97.0677    37.8155     1.0019
97.79  16.666559    74.6552   112.3038    55.8309    44.1691    97.0159    37.7961     1.0016
100.15  16.667999    74.6055   112.2305    55.7931    44.1473    96.9623    37.7759     1.0013
102.55  16.669502    74.5543   112.1549    55.7541    44.1246    96.9067    37.7549     1.0010
104.97  16.671057    74.5020   112.0776    55.7142    44.1011    96.8495    37.7334     1.0007
107.41  16.672662    74.4486   111.9987    55.6736    44.0769    96.7907    37.7112     1.0004
109.89  16.674332    74.3937   111.9177    55.6317    44.0516    96.7299    37.6882     1.0001
112.39  16.676053    74.3377   111.8350    55.5891    44.0256    96.6676    37.6646     0.9998
114.93  16.677839    74.2803   111.7502    55.5453    43.9987    96.6032    37.6402     0.9995
117.49  16.679676    74.2218   111.6638    55.5008    43.9709    96.5373    37.6152     0.9992
120.07  16.681564    74.1623   111.5759    55.4554    43.9424    96.4699    37.5896     0.9989
122.69  16.683517    74.1013   111.4859    55.4090    43.9129    96.4005    37.5631     0.9986
125.34  16.685528    74.0391   111.3941    55.3617    43.8826    96.3293    37.5360     0.9983
128.01  16.687590    73.9760   111.3009    55.3136    43.8515    96.2566    37.5084     0.9980
130.71  16.689710    73.9117   111.2059    55.2646    43.8195    96.1822    37.4800     0.9976
133.44  16.691887    73.8462   111.1091    55.2147    43.7867    96.1060    37.4509     0.9973
136.2  16.694123    73.7795   111.0106    55.1639    43.7530    96.0282    37.4211     0.9970
138.98  16.696407    73.7119   110.9108    55.1125    43.7186    95.9488    37.3908     0.9967
141.8  16.698758    73.6430   110.8089    55.0600    43.6831    95.8675    37.3597     0.9964
144.64  16.701158    73.5731   110.7057    55.0068    43.6470    95.7848    37.3280     0.9961
147.51  16.703615    73.5021   110.6008    54.9528    43.6100    95.7003    37.2956     0.9958
150.41  16.706130    73.4300   110.4942    54.8979    43.5721    95.6142    37.2625     0.9954
153.34  16.708701    73.3568   110.3860    54.8423    43.5334    95.5264    37.2288     0.9951
156.29  16.711321    73.2828   110.2764    54.7859    43.4940    95.4372    37.1945     0.9948
159.28  16.714006    73.2074   110.1649    54.7286    43.4536    95.3460    37.1594     0.9945
162.29  16.716739    73.1311   110.0521    54.6706    43.4125    95.2534    37.1238     0.9942
165.33  16.719529    73.0538   109.9377    54.6119    43.3705    95.1592    37.0875     0.9938
168.4  16.722375    72.9754   109.8217    54.5523    43.3278    95.0634    37.0505     0.9935
171.49  16.725268    72.8963   109.7045    54.4921    43.2843    94.9661    37.0131     0.9932
174.62  16.728227    72.8158   109.5853    54.4310    43.2399    94.8670    36.9748     0.9929
177.77  16.731232    72.7345   109.4648    54.3693    43.1948    94.7665    36.9360     0.9925
180.95  16.734293    72.6521   109.3428    54.3068    43.1488    94.6643    36.8965     0.9922
184.16  16.737410    72.5687   109.2192    54.2435    43.1020    94.5605    36.8564     0.9919
187.4  16.740583    72.4843   109.0940    54.1794    43.0545    94.4551    36.8156     0.9916
190.66  16.743801    72.3991   108.9676    54.1148    43.0062    94.3484    36.7743     0.9912
193.96  16.747084    72.3126   108.8392    54.0493    42.9570    94.2397    36.7322     0.9909
197.28  16.750413    72.2253   108.7096    53.9831    42.9071    94.1298    36.6896     0.9906
200.63  16.753798    72.1370   108.5785    53.9163    42.8564    94.0182    36.6463     0.9903
204.01  16.757237    72.0477   108.4458    53.8487    42.8049    93.9050    36.6024     0.9899
207.41  16.760722    71.9576   108.3119    53.7805    42.7528    93.7905    36.5580     0.9896
210.85  16.764271    71.8663   108.1761    53.7114    42.6997    93.6741    36.5128     0.9893
214.31  16.767865    71.7742   108.0391    53.6418    42.6460    93.5564    36.4670     0.9889
217.8  16.771515    71.6811   107.9005    53.5714    42.5914    93.4371    36.4207     0.9886
221.32  16.775219    71.5870   107.7603    53.5003    42.5361    93.3162    36.3736     0.9883
224.87  16.778978    71.4918   107.6186    53.4285    42.4799    93.1936    36.3260     0.9879
228.45  16.782791    71.3957   107.4753    53.3559    42.4230    93.0695    36.2777     0.9876
232.05  16.786649    71.2988   107.3308    53.2828    42.3654    92.9441    36.2288     0.9873
235.68  16.790562    71.2009   107.1847    53.2090    42.3071    92.8170    36.1794     0.9869
239.34  16.794529    71.1020   107.0370    53.1345    42.2479    92.6884    36.1292     0.9866
243.03  16.798551    71.0021   106.8878    53.0593    42.1880    92.5582    36.0785     0.9862
246.75  16.802628    70.9012   106.7369    52.9834    42.1273    92.4263    36.0271     0.9859
250.49  16.806749    70.7996   106.5849    52.9069    42.0659    92.2932    35.9751     0.9856
254.27  16.810936    70.6967   106.4309    52.8296    42.0036    92.1581    35.9224     0.9852
258.07  16.815166    70.5930   106.2757    52.7517    41.9407    92.0218    35.8692     0.9849
261.9  16.819452    70.4884   106.1188    52.6732    41.8770    91.8838    35.8153     0.9845
265.75  16.823781    70.3830   105.9608    52.5941    41.8126    91.7446    35.7609     0.9842
269.64  16.828176    70.2763   105.8007    52.5142    41.7473    91.6033    35.7057     0.9838
273.56  16.832627    70.1687   105.6390    52.4335    41.6813    91.4605    35.6499     0.9835
277.5  16.837121    70.0603   105.4761    52.3523    41.6146    91.3164    35.5935     0.9831
281.47  16.841671    69.9509   105.3116    52.2705    41.5471    91.1706    35.5365     0.9828
285.47  16.846276    69.8404   105.1454    52.1880    41.4789    91.0232    35.4788     0.9824
289.49  16.850925    69.7293   104.9780    52.1049    41.4100    90.8745    35.4206     0.9821
293.55  16.855641    69.6168   104.8085    52.0210    41.3402    90.7239    35.3616     0.9817
297.63  16.860401    69.5036   104.6378    51.9366    41.2697    90.5719    35.3021     0.9813
301.74  16.865217    69.3894   104.4654    51.8515    41.1985    90.4182    35.2419     0.9810
305.88  16.870089    69.2742   104.2913    51.7657    41.1265    90.2629    35.1810     0.9806
310.05  16.875017    69.1580   104.1155    51.6792    41.0537    90.1060    35.1195     0.9802
314.25  16.880001    69.0407   103.9381    51.5921    40.9801    89.9473    35.0572     0.9799
318.47  16.885030    68.9227   103.7593    51.5045    40.9058    89.7874    34.9945     0.9795
322.73  16.890127    68.8034   103.5785    51.4159    40.8307    89.6254    34.9309     0.9791
327.01  16.895270    68.6834   103.3963    51.3269    40.7549    89.4620    34.8668     0.9787
331.32  16.900469    68.5623   103.2124    51.2373    40.6783    89.2970    34.8020     0.9784
335.65  16.905713    68.4405   103.0272    51.1471    40.6011    89.1306    34.7366     0.9780
340.02  16.911027    68.3173   102.8398    51.0561    40.5229    88.9622    34.6705     0.9776
344.41  16.916386    68.1935   102.6511    50.9646    40.4441    88.7924    34.6037     0.9772
348.83  16.921803    68.0685   102.4606    50.8725    40.3644    88.6209    34.5363     0.9768
353.28  16.927278    67.9425   102.2683    50.7796    40.2840    88.4476    34.4682     0.9764
357.76  16.932811    67.8155   102.0743    50.6861    40.2028    88.2726    34.3993     0.9760
362.27  16.938403    67.6875   101.8784    50.5920    40.1208    88.0958    34.3298     0.9756
366.8  16.944041    67.5586   101.6812    50.4973    40.0381    87.9177    34.2597     0.9752
371.37  16.949751    67.4285   101.4817    50.4018    39.9545    87.7373    34.1887     0.9748
375.96  16.955507    67.2975   101.2808    50.3059    39.8702    87.5556    34.1171     0.9744
380.58  16.961323    67.1655   101.0781    50.2093    39.7851    87.3721    34.0448     0.9740
385.22  16.967186    67.0328   100.8739    50.1122    39.6994    87.1872    33.9720     0.9736
389.9  16.973122    66.8986   100.6674    50.0142    39.6127    87.0001    33.8982     0.9732
394.6  16.979105    66.7637   100.4595    49.9158    39.5253    86.8116    33.8239     0.9728
399.34  16.985163    66.6275   100.2492    49.8166    39.4370    86.6208    33.7487     0.9723
404.1  16.991268    66.4904   100.0375    49.7169    39.3479    86.4286    33.6729     0.9719
408.88  16.997422    66.3526    99.8243    49.6167    39.2583    86.2349    33.5965     0.9715
413.7  17.003651    66.2134    99.6086    49.5157    39.1676    86.0389    33.5191     0.9710
418.55  17.009941    66.0731    99.3911    49.4141    39.0761    85.8411    33.4410     0.9706
423.42  17.016281    65.9320    99.1720    49.3120    38.9839    85.6418    33.3623     0.9702
428.32  17.022684    65.7898    98.9509    49.2092    38.8909    85.4405    33.2829     0.9697
433.25  17.029150    65.6465    98.7278    49.1058    38.7970    85.2374    33.2026     0.9693
438.21  17.035680    65.5021    98.5027    49.0018    38.7023    85.0323    33.1215     0.9688
443.19  17.042261    65.3569    98.2760    48.8973    38.6069    84.8257    33.0399     0.9684
448.21  17.048919    65.2103    98.0469    48.7920    38.5105    84.6167    32.9572     0.9679
453.25  17.055628    65.0629    97.8161    48.6863    38.4133    84.4061    32.8740     0.9674
458.32  17.062403    64.9143    97.5832    48.5799    38.3154    84.1935    32.7899     0.9670
463.42  17.069243    64.7647    97.3482    48.4729    38.2165    83.9790    32.7050     0.9665
468.55  17.076149    64.6139    97.1111    48.3653    38.1168    83.7624    32.6193     0.9660
473.7  17.083108    64.4623    96.8723    48.2573    38.0164    83.5442    32.5329     0.9655
478.89  17.090148    64.3092    96.6309    48.1484    37.9149    83.3235    32.4455     0.9650
484.1  17.097242    64.1553    96.3878    48.0391    37.8128    83.1012    32.3574     0.9646
489.34  17.104403    64.0003    96.1425    47.9292    37.7097    82.8768    32.2685     0.9641
494.61  17.111633    63.8441    95.8950    47.8186    37.6057    82.6503    32.1787     0.9636
499.9  17.118918    63.6870    95.6457    47.7077    37.5011    82.4221    32.0882     0.9631
505.23  17.126286    63.5285    95.3937    47.5960    37.3953    82.1914    31.9967     0.9625
510.58  17.133711    63.3692    95.1398    47.4838    37.2888    81.9589    31.9045     0.9620
515.96  17.141205    63.2086    94.8837    47.3711    37.1814    81.7242    31.8114     0.9615
521.37  17.148771    63.0469    94.6253    47.2577    37.0731    81.4873    31.7174     0.9610
526.81  17.156408    62.8840    94.3645    47.1438    36.9639    81.2483    31.6224     0.9605
532.27  17.164103    62.7203    94.1018    47.0295    36.8539    81.0074    31.5268     0.9599
537.76  17.171871    62.5553    93.8367    46.9146    36.7430    80.7643    31.4302     0.9594
543.29  17.179727    62.3888    93.5688    46.7989    36.6309    80.5184    31.3325     0.9588
548.84  17.187642    62.2215    93.2989    46.6828    36.5181    80.2707    31.2341     0.9583
554.41  17.195617    62.0532    93.0270    46.5663    36.4045    80.0211    31.1348     0.9577
560.02  17.203681    61.8834    92.7521    46.4491    36.2898    79.7688    31.0345     0.9572
565.66  17.211821    61.7124    92.4747    46.3313    36.1741    79.5141    30.9331     0.9566
571.32  17.220024    61.5405    92.1952    46.2131    36.0577    79.2574    30.8310     0.9560
577.01  17.228303    61.3674    91.9132    46.0944    35.9402    78.9983    30.7279     0.9554
582.73  17.236660    61.1930    91.6286    45.9752    35.8218    78.7368    30.6238     0.9548
588.48  17.245095    61.0174    91.3414    45.8554    35.7024    78.4728    30.5186     0.9542
594.25  17.253595    60.8408    91.0520    45.7352    35.5822    78.2068    30.4127     0.9536
600.06  17.262190    60.6627    90.7594    45.6143    35.4607    77.9378    30.3055     0.9530
605.89  17.270850    60.4836    90.4646    45.4931    35.3385    77.6668    30.1974     0.9524
611.75  17.279592    60.3032    90.1671    45.3713    35.2153    77.3932    30.0883     0.9518
617.64  17.288415    60.1216    89.8668    45.2491    35.0910    77.1169    29.9781     0.9512
623.55  17.297307    59.9390    89.5642    45.1265    34.9659    76.8386    29.8671     0.9505
629.5  17.306297    59.7549    89.2582    45.0032    34.8395    76.5571    29.7547     0.9499
635.47  17.315356    59.5697    88.9499    44.8796    34.7124    76.2734    29.6415     0.9493
641.47  17.324501    59.3832    88.6386    44.7555    34.5841    75.9870    29.5271     0.9486
647.5  17.333732    59.1954    88.3245    44.6309    34.4548    75.6978    29.4116     0.9479
653.56  17.343050    59.0063    88.0074    44.5058    34.3244    75.4060    29.2950     0.9473
659.65  17.352456    58.8159    87.6874    44.3802    34.1929    75.1113    29.1772     0.9466
665.76  17.361936    58.6245    87.3649    44.2542    34.0606    74.8144    29.0585     0.9459
671.9  17.371505    58.4317    87.0394    44.1278    33.9272    74.5146    28.9386     0.9452
678.07  17.381164    58.2376    86.7109    44.0009    33.7926    74.2120    28.8176     0.9445
684.27  17.390915    58.0421    86.3793    43.8735    33.6570    73.9065    28.6953     0.9438
690.5  17.400759    57.8453    86.0446    43.7456    33.5202    73.5981    28.5719     0.9431
696.75  17.410681    57.6474    85.7073    43.6174    33.3825    73.2873    28.4475     0.9423
703.04  17.420713    57.4478    85.3664    43.4885    33.2435    72.9731    28.3217     0.9416
709.35  17.430825    57.2471    85.0228    43.3593    33.1035    72.6564    28.1948     0.9409
715.69  17.441033    57.0451    84.6761    43.2296    32.9623    72.3367    28.0667     0.9401
722.06  17.451339    56.8416    84.3261    43.0994    32.8200    72.0140    27.9374     0.9393
728.45  17.461728    56.6371    83.9735    42.9689    32.6768    71.6887    27.8070     0.9386
734.88  17.472233    56.4308    83.6171    42.8377    32.5321    71.3599    27.6752     0.9378
741.33  17.482824    56.2234    83.2579    42.7062    32.3865    71.0284    27.5422     0.9370
747.81  17.493516    56.0146    82.8954    42.5742    32.2396    70.6939    27.4080     0.9362
754.32  17.504312    55.8043    82.5295    42.4417    32.0916    70.3562    27.2725     0.9354
760.86  17.515213    55.5925    82.1603    42.3086    31.9423    70.0152    27.1357     0.9346
767.42  17.526203    55.3796    81.7883    42.1753    31.7920    69.6716    26.9978     0.9337
774.01  17.537300    55.1653    81.4128    42.0415    31.6405    69.3248    26.8585     0.9329
780.64  17.548523    54.9491    81.0333    41.9070    31.4874    68.9741    26.7177     0.9320
787.29  17.559839    54.7317    80.6509    41.7722    31.3334    68.6207    26.5758     0.9312
793.96  17.571249    54.5132    80.2656    41.6370    31.1782    68.2645    26.4327     0.9303
800.67  17.582789    54.2928    79.8761    41.5012    31.0216    67.9044    26.2880     0.9294
807.4  17.594426    54.0713    79.4837    41.3650    30.8639    67.5414    26.1421     0.9285
814.17  17.606197    53.8478    79.0871    41.2281    30.7046    67.1744    25.9946     0.9276
820.96  17.618067    53.6231    78.6875    41.0909    30.5442    66.8045    25.8459     0.9267
827.78  17.630055    53.3969    78.2843    40.9532    30.3825    66.4312    25.6957     0.9258
834.63  17.642164    53.1691    77.8773    40.8149    30.2195    66.0543    25.5442     0.9248
841.5  17.654378    52.9400    77.4673    40.6763    30.0553    65.6744    25.3914     0.9239
848.4  17.666715    52.7093    77.0535    40.5372    29.8897    65.2909    25.2371     0.9229
855.34  17.679195    52.4767    76.6354    40.3973    29.7225    64.9032    25.0811     0.9219
862.3  17.691784    52.2428    76.2141    40.2571    29.5541    64.5125    24.9239     0.9209
869.29  17.704502    52.0073    75.7890    40.1164    29.3844    64.1180    24.7651     0.9199
876.3  17.717332    51.7704    75.3606    39.9753    29.2134    63.7204    24.6051     0.9189
883.35  17.730313    51.5315    74.9278    39.8334    29.0407    63.3185    24.4433     0.9179
890.42  17.743410    51.2913    74.4917    39.6912    28.8668    62.9133    24.2802     0.9168
897.52  17.756643    51.0494    74.0516    39.5483    28.6914    62.5043    24.1155     0.9158
904.65  17.770015    50.8058    73.6076    39.4049    28.5145    62.0914    23.9493     0.9147
911.81  17.783527    50.5605    73.1596    39.2610    28.3362    61.6746    23.7814     0.9136
918.99  17.797163    50.3138    72.7083    39.1166    28.1565    61.2545    23.6122     0.9125
926.21  17.810962    50.0650    72.2522    38.9714    27.9751    60.8298    23.4412     0.9114
933.45  17.824889    49.8148    71.7927    38.8258    27.7923    60.4016    23.2688     0.9102
